Wavelength,Transmission
8850.0,0.0001
8900.0,0.0009
8950.0,0.0044
9000.0,0.0178
9050.0,0.0594
9100.0,0.1639
9150.0,0.3771
9200.0,0.7298
9250.0,1.2022
9300.0,1.7158
9350.0,2.169
9400.0,2.4908
9450.0,2.6763
9500.0,2.7617
9550.0,2.7932
9600.0,2.8025
9650.0,2.8019
9700.0,2.8006
9750.0,2.797
9800.0,2.7948
9850.0,2.7912
9900.0,2.7872
9950.0,2.785
10000.0,2.7816
10050.0,2.7799
10100.0,2.7784
10150.0,2.777
10200.0,2.7757
10250.0,2.7745
10300.0,2.7735
10350.0,2.7711
10400.0,2.7706
10450.0,2.7701
10500.0,2.7699
10550.0,2.77
10600.0,2.7703
10650.0,2.7708
10700.0,2.7715
10750.0,2.7723
10800.0,2.7732
10850.0,2.7756
10900.0,2.7763
10950.0,2.7771
11000.0,2.7792
11050.0,2.7778
11100.0,2.7778
11150.0,2.7791
11200.0,2.7803
11250.0,2.78
11300.0,2.7815
11350.0,2.7821
11400.0,2.7827
11450.0,2.7823
11500.0,2.7815
11550.0,2.7748
11600.0,2.7566
11650.0,2.7157
11700.0,2.6306
11750.0,2.4822
11800.0,2.2517
11850.0,1.9366
11900.0,1.5604
11950.0,1.1637
12000.0,0.7949
12050.0,0.4936
12100.0,0.2771
12150.0,0.1398
12200.0,0.0631
12250.0,0.0254
12300.0,0.0091
12350.0,0.0029
12400.0,0.0008
12450.0,0.0002
